Pressure,AEI_0,APC_1,APC_2,CDO_1,GIS_1,ITV_0,IWR_0,PWN,WEI_0
0.0,6.173434541223169e-08,3.765000011835241e-08,1.63135199899052e-08,1.8682867381427754e-07,1.3090376323174817e-07,1.8523045396622782e-07,4.66851480944338e-07,4.071800878443649e-07,1.2849999995526314e-08
0.2,0.0027060889817521723,0.0011701402284742324,0.0005935995170916156,0.005574184210715711,0.0052817123758138775,0.01032684012055841,0.020192355675296744,0.015760391490474094,0.0006305548446474229
0.4,0.005546473126238814,0.002340429068865269,0.0011884837814384978,0.011050081080907843,0.010563876476918177,0.020614514408474064,0.03994161064920488,0.031247210609923973,0.0012610834297900535
0.6000000000000001,0.00850389945622548,0.003510864343246112,0.0017846394383841965,0.01642974642120016,0.015846297014816414,0.030863106807175338,0.05926589294774437,0.04646889666816406,0.0018915828401756905
0.8,0.011564250720772775,0.00468144388574672,0.002382053230441003,0.02171521556441817,0.021128781411180297,0.0410727041951178,0.0781822720717356,0.06143353528458042,0.00252205018781523
1.0,0.014715727682300856,0.005852165542476011,0.0029807119963492145,0.026908500171523863,0.02641113977386191,0.0512433962754419,0.09670683670930072,0.07614887682210443,0.003152482611743113
1.2000000000000002,0.017948301958683896,0.007023027171441989,0.003580602670150793,0.032011585526526234,0.03169318487292256,0.0613752754689304,0.11485476570613684,0.09062235367861962,0.0037828772777798335
1.4000000000000001,0.02125333463304797,0.008194026642474601,0.004181712280278519,0.03702642826442814,0.03697473211668402,0.0714684368101568,0.1326403929627297,0.10486109651762286,0.004413231378297242
1.6,0.024623301281503803,0.009365161837148047,0.004784027948659182,0.04195495448236528,0.042255599527805776,0.08152297784673072,0.1500772668531647,0.11887194951333611,0.00504354213198586
1.8,0.028051588025133085,0.01053643064870415,0.005387536889831752,0.04679905818951894,0.04753560771939836,0.0915389985415452,0.16717820469486966,0.1326614846794184,0.005673806783624845
2.0,0.031532336568670584,0.011707830981976253,0.005992226410078952,0.05156060005621808,0.052814579871169685,0.10151660117793586,0.18395534274123185,0.14623601534495553,0.00630402260385428
2.2,0.03506032399229358,0.012879360753314379,0.006598083906572323,0.056241406426954084,0.0580923417056194,0.11145589026766296,0.20042018211853646,0.15960160883638125,0.006934186888949475
2.4000000000000004,0.03863086780879496,0.014051017890510024,0.007205096866531053,0.060843268565865395,0.0633687214642769,0.12135697246162966,0.21658363108415193,0.17276409841942297,0.007564296960597796
2.6,0.04223974978589357,0.015222800332722242,0.007813252866393868,0.06536794210667715,0.06864354988399338,0.13121995646326096,0.23245604394357336,0.18572909455099199,0.008194350165677778
2.8000000000000003,0.0458831539715278,0.016394706030404133,0.008422539571002757,0.06981714668212599,0.0739166601732905,0.1410449529444511,0.24804725692915794,0.19850199548712627,0.008824343876040138
3.0,0.04955761565108045,0.01756673294523061,0.009032944732800465,0.07419256571062896,0.07918788798877044,0.15083207446401864,0.26336662131257726,0.21108799728960057,0.009454275488291393
3.2,0.053259978846078984,0.01873887905002527,0.009644456191038996,0.07849584632038036,0.08445707141159067,0.16058143538857916,0.278423033995669,0.2234921032706321,0.010084142423579084
3.4000000000000004,0.05698736057728843,0.01991114232868931,0.01025706187100074,0.0827285993932307,0.08972405092400886,0.17029315181577417,0.293224965800069,0.23571913291217372,0.010713942127379859
3.6,0.060737120550537746,0.021083520776130977,0.010870749783230972,0.08689239971263757,0.0949886693860005,0.17996734149978155,0.3077804876543817,0.24777373029360852,0.01134367206928898
3.8000000000000003,0.06450683523804719,0.022256012398194146,0.011485508022781695,0.09098878620170696,0.10025077201195545,0.18960412377904184,0.3220972948583598,0.2596603720591896,0.011973329742812323
4.0,0.06829427555865461,0.023428615211589468,0.012101324768466593,0.09501926223888692,0.1055102063474532,0.19920361950613188,0.3361827295863654,0.2713833749543107,0.01260291266516024
4.2,0.0720973875319121,0.024601327243824578,0.012718188282127474,0.098985296040256,0.11076682224612465,0.20876595097972955,0.3500438017769928,0.2829469029576002,0.013232418377043531
4.4,0.07591427541036198,0.025774146533135995,0.013336086907910293,0.10288832109857828,0.11602047184660108,0.21829124187859797,0.3636872085419739,0.29435497403393085,0.01386184444247147
4.6000000000000005,0.07974318689295042,0.026947071128420548,0.01395500907155271,0.10672973667040171,0.12127100954955433,0.22777961719754014,0.3771193522151397,0.3056114665316567,0.014491188448551628
4.800000000000001,0.08358250009864629,0.028120099089168217,0.014574943279681191,0.11051090830345517,0.12651829199483242,0.23723120318525917,0.39034635715114874,0.3167201252457759,0.015120448005291743
5.0,0.08743071203863578,0.029293228485394767,0.015195878119118234,0.11423316839748425,0.13176217803869184,0.24664612728407267,0.4033740853737301,0.32768456716721284,0.01574962074540389
5.2,0.09128642837213027,0.030466457397576096,0.015817802256199665,0.11789781679244606,0.1370025287311305,0.25602451807142346,0.41620815116425763,0.33850828693702595,0.016378704324109625
5.4,0.09514835426786515,0.03163978391658176,0.016440704436101225,0.12150612137868802,0.14223920729332598,0.2653665052031396,0.42885393467338934,0.3491946620230812,0.017007696418948226
5.6000000000000005,0.09901528622302232,0.03281320614361006,0.017064573482174657,0.1250593187243638,0.1474720790951777,0.2746722193583877,0.44131659463125855,0.359746957635535,0.017636594729585765
5.800000000000001,0.10288610471522548,0.033986722190122935,0.017689398295292886,0.12855861471589605,0.15270101163295843,0.2839417921862739,0.45360108022512635,0.3701683313963907,0.018265396977626573
6.0,0.10675976758269302,0.03516033017778221,0.01831516785320451,0.1320051852078008,0.1579258745070798,0.2931753562540441,0.465712142207484,0.3804618377773749,0.018894100906426486
6.2,0.11063530404354147,0.03633402823838556,0.018941871209896682,0.13540017667863113,0.16314653939996818,0.3023730449968362,0.4776543432922248,0.39063043231944516,0.019522704280907636
6.4,0.11451180927831847,0.037507814513803285,0.0195694974949669,0.13874470689020166,0.16836288005405886,0.3115349926689402,0.48943206789165145,0.40067697564637594,0.020151204887375245
6.6000000000000005,0.1183884395107008,0.038681687155916286,0.020198035913003176,0.14203986554760653,0.17357477224990867,0.32066133429652605,0.5010495312426737,0.410604237284061,0.0207796005333362
6.800000000000001,0.12226440753032743,0.039855644326552656,0.02082747574297244,0.14528671495786666,0.17878209378442797,0.32975220563178986,0.5125107879665612,0.42041489929642417,0.02140788904731914
7.0,0.12613897860931156,0.041029684197427654,0.021457806337617395,0.14848629068532185,0.18398472444923752,0.33880774310848655,0.5238197401029769,0.43011155974814635,0.02203606827869646
7.2,0.13001146677034917,0.042203804950081324,0.02208901712286058,0.15163960220214007,0.18918254600914713,0.3478280837988009,0.5349801446557261,0.43969673600375814,0.0226641360975079
7.4,0.1338812313697418,0.04337800477581821,0.022721097597217237,0.15474763353253712,0.19437544218076344,0.3568133653715272,0.5459956206846357,0.449172867872061,0.02329209039428604
7.6000000000000005,0.1377476739632302,0.04455228187564749,0.02335403733121482,0.1578113438895062,0.1995632986112242,0.36576372605151164,0.5568696559752592,0.45854232060427974,0.02391992907988297
7.800000000000001,0.14161023542645637,0.04572663446022306,0.023987825966820767,0.16083166830302986,0.2047460028570638,0.37467930458033005,0.5676056133155866,0.4678073877538278,0.02454765008529904
8.0,0.14546839330522301,0.046901060749784125,0.024622453216877144,0.1638095182389115,0.20992344436320867,0.3835602401781579,0.5782067364066789,0.47697029390509116,0.025175251361513197
8.200000000000001,0.14932165937360997,0.04807555897409711,0.025257908864542666,0.1667457822074996,0.21509551444210767,0.39240667250680433,0.5886761554320507,0.48603319727818073,0.025802730879314662
8.4,0.15316957738050305,0.04925012737239672,0.025894182762741816,0.16964132636170742,0.22026210625299592,0.40121874163387505,0.5990168923087333,0.4949981922161878,0.026430086629136394
8.6,0.15701172096725066,0.05042476419332855,0.02653126483362069,0.17249699508383984,0.22542311478129418,0.4099965879980322,0.6092318656412005,0.5038673115610888,0.027057316620889928
8.8,0.1608476917410504,0.05159946769489169,0.027169145068009833,0.17531361156083652,0.2305784368181465,0.41874035237532126,0.6193238953977538,0.5126425289240721,0.027684418883802128
9.0,0.16467711749030253,0.05277423614438199,0.027807813524893747,0.1780919783476314,0.23572797094009532,0.4274501758465311,0.629295707327494,0.5213257608557325,0.028311391466253052
9.200000000000001,0.16849965052961485,0.053949067818335604,0.028447260330886154,0.18083287791840127,0.24087161748889643,0.43612619976556677,0.6391499371346733,0.5299188689212464,0.028938232435615593
9.4,0.1723149661633941,0.0551239610024725,0.02908747567971345,0.1835370732055454,0.24600927855147445,0.44476856572879286,0.6488891344259887,0.5384236616853576,0.02956493987809645
9.600000000000001,0.1761227612580818,0.05629891399164184,0.029728449831702225,0.1862053081262999,0.25114085794001967,0.45337741554533634,0.6585157664452459,0.5468418966117138,0.030191511898578757
9.8,0.17992275291406334,0.057473925089766224,0.03037017311327464,0.18883830809693658,0.2562662611722278,0.46195289120830507,0.668032221608786,0.5551752818808398,0.03081794662046588
10.0,0.183714677229156,0.05864899260978753,0.0310126359164488,0.19143678053455096,0.26138539545168293,0.4704951348669134,0.6774408128541125,0.5634254781307919,0.031444242185527084
10.200000000000001,0.1874982881463453,0.059824114873612236,0.03165582869834587,0.19400141534647375,0.2664981696483841,0.4790042887994729,0.6867437808132728,0.5715941001243056,0.03207039675374426
10.4,0.1912733563791297,0.06099929021205776,0.03229974198070217,0.19653288540738367,0.27160449427941724,0.4874804953872361,0.6959432968217394,0.5796827183460318,0.032696408503160114
10.600000000000001,0.1950396684084404,0.062174516964799385,0.03294436634938776,0.19903184702422186,0.2767042814897731,0.4959238970890657,0.7050414657727893,0.5876928605332727,0.03332227562972803
10.8,0.1987970255456516,0.06334979348031701,0.033589692453929974,0.20149894038904012,0.28179744503331017,0.5043346364169017,0.7140403288266886,0.5956260131434171,0.03394799634716296
11.0,0.2025452430566827,0.06452511811584255,0.03423571100704302,0.20393479001993334,0.28688390025386457,0.5127128559120121,0.7229418659833522,0.6034836227611192,0.034573568886793846
11.200000000000001,0.20628414934263498,0.06570048923730817,0.03488241278416245,0.20634000519022663,0.29196356406650953,0.5210586981219981,0.7317479985265627,0.6112670974480875,0.03519899149741745
11.4,0.21001358517279467,0.06687590521929412,0.035529788622985344,0.20871518034610137,0.29703635493895786,0.5293723055785378,0.7404605913472848,0.6189778080382016,0.035824262445153424
11.600000000000001,0.21373340296619414,0.0680513644449779,0.03617782942301541,0.21106089551286417,0.30210219287311635,0.5376538207758433,0.7490814551531133,0.6266170893805243,0.03644938001330063
11.8,0.21744346611823695,0.06922686530608269,0.03682652614511333,0.21337771669006317,0.307160999386788,0.5459033861498174,0.7576123485704207,0.6341862415326391,0.037074342502195046
12.0,0.22114364836918704,0.07040240620282741,0.0374758698110523,0.21566619623567354,0.3122126974955204,0.5541211440578833,0.7660549801453455,0.6416865309066243,0.037699148229068516
12.200000000000001,0.22483383321157832,0.07157798554387634,0.03812585150307791,0.21792687323957832,0.31725721169460674,0.5623072367594736,0.7744110102493567,0.6491191913698345,0.038323795527909335
12.4,0.22851391333384152,0.07275360174628943,0.03877646236347357,0.22016027388657355,0.3222944679412324,0.5704618063971588,0.7826820528947633,0.6564854253025654,0.03894828274932364
12.600000000000001,0.23218379009765935,0.07392925323547263,0.039427693594130175,0.22236691180913495,0.327324393636773,0.5785849949783967,0.7908696774651905,0.6637864046145593,0.03957260826039809
12.8,0.23584337304675182,0.0751049384451292,0.04007953645612085,0.22454728843018107,0.3323469176092415,0.5866769443578858,0.7989754103657286,0.6710232717222085,0.04019677044456423
13.0,0.2394925794449833,0.07628065581721125,0.04073198226927961,0.22670189329607587,0.33736197009588337,0.5947377962205076,0.807000736597156,0.6781971404882265,0.040820767701463416
13.200000000000001,0.24313133384182883,0.07745640380187088,0.04138502241178555,0.22883120440010477,0.3423694827259226,0.6027676920648382,0.8149471012583737,0.6853090971254487,0.04144459844681355
13.4,0.24675956766339754,0.07863218085741293,0.042038648319750356,0.23093568849667068,0.34736938850345683,0.6107667731872168,0.822815910980919,0.6923602010663643,0.04206826111227655
13.600000000000001,0.25037721882734276,0.07980798545024699,0.042692851486811186,0.23301580140644038,0.3523616217905006,0.6187351806663526,0.8306085352991981,0.6993514857998827,0.04269175414532737
13.8,0.25398423138010856,0.08098381605484038,0.04334762346372672,0.23507198831268533,0.3573461182901799,0.6266730553484576,0.8383263079598453,0.7062839596767633,0.04331507600912382
14.0,0.25758055515508116,0.08215967115367183,0.04400295585797868,0.237104684049045,0.36232281503007363,0.6345805378328885,0.8459705281734206,0.7131586066850796,0.043938225182377964
14.200000000000001,0.2611661454503132,0.08333554923718424,0.04465884033337639,0.23911431337894928,0.36729165034570516,0.6424577684582848,0.853542461811451,0.7199763871970061,0.04456120015922837
14.4,0.26474096272458575,0.08451144880373863,0.045315268609665914,0.24110129126692453,0.3722525638641821,0.650304887289191,0.8610433425516537,0.7267382386881603,0.045183999449113464
14.600000000000001,0.2683049723106624,0.08568736835956936,0.04597223246214337,0.2430660231420114,0.37720549648798535,0.6581220341031444,0.8684743729739977,0.7334450764306741,0.04580662157664624
14.8,0.271858144144667,0.08686330641873757,0.04662972372127138,0.24500890515351384,0.3821503903789044,0.665909348378222,0.8758367256101204,0.7400977941611024,0.046429065081489994
15.0,0.27540045251059075,0.08803926150308682,0.04728773427230047,0.24693032441929663,0.3870871889421226,0.6736669692810275,0.8831315439484497,0.7466972647242399,0.04705132851823494
15.200000000000001,0.27893187579901113,0.08921523214219797,0.04794625605489329,0.24883065926684536,0.39201583681044877,0.6813950356551116,0.8903599433972651,0.7532443406938423,0.04767341045627625
15.4,0.28245239627915125,0.09039121687334485,0.04860528106275321,0.2507102794672975,0.39693627982869534,0.6890936860098095,0.8975230122077779,0.759739854971225,0.04829530947969297
15.600000000000001,0.28596199988348586,0.09156721424145048,0.04926480134325631,0.2525695464626466,0.4018484650382042,0.6967630585094854,0.9046218123592283,0.7661846213626526,0.04891702418712801
15.8,0.289460676004138,0.092743222799043,0.049924808997086956,0.254408813586324,0.4067523406615194,0.7044032909631753,0.9116573804078374,0.7725794351363863,0.04953855319166919
16.0,0.29294841730037235,0.09391924110621244,0.050585296177876986,0.25622842627734566,0.41164785608720394,0.71201452081461,0.9186307283013941,0.7789250735602303,0.05015989512073145
16.2,0.2964252195165278,0.09509526773056737,0.051246255091848644,0.25802872228822304,0.4165349618548023,0.7195968851326182,0.9255428441611203,0.7852222964203637,0.05078104861594004
16.400000000000002,0.29989108130978026,0.09627130124719264,0.0519076779974604,0.2598100318868163,0.421413609639949,0.7271505206018869,0.9323946930323948,0.7914718465222166,0.05140201233301434
16.6,0.30334600408716417,0.09744734023860618,0.05256955720505665,0.26157267805231393,0.42628375223962084,0.7346755635140791,0.939187217605806,0.7976744501741166,0.05202278494165365
16.8,0.3067899918513187,0.0986233832947175,0.05323188507652061,0.2633169766655166,0.4311453435575319,0.742172149759296,0.945921338909944,0.8038308176543885,0.05264336512542278
17.0,0.310223051054457,0.09979942901278545,0.05389465402493028,0.2650432366935914,0.4359983385896731,0.749640414817869,0.9525979569772457,0.8099416436625656,0.05326375158163944
17.2,0.3136451904600914,0.10097547599737698,0.05455785651421806,0.26675176036947,0.44084269340999394,0.75708049375248,0.9592179514841541,0.8160076077553455,0.05388394302126255
17.400000000000002,0.31705642101207343,0.10215152286032572,0.05522148505883296,0.2684428433660462,0.4456783651562253,0.7644925212005969,0.9657821823667714,0.8220293747678864,0.05450393816878116
17.6,0.3204567557105383,0.10332756822069096,0.055885532223406795,0.27011677496533687,0.4505053120158452,0.7718766313672132,0.9722914904131312,0.8280075952210145,0.0551237357621045
17.8,0.3238462094943647,0.1045036107047174,0.05654999062242218,0.27177383822275464,0.45532349321218313,0.7792329580178889,0.9787466978331503,0.8339429057148959,0.05574333455245322
18.0,0.32722479912979185,0.10567964894579429,0.057214852919884915,0.2734143101266437,0.4601328689906671,0.7865616344720799,0.98514860880727,0.8398359293096902,0.05636273330425111
18.2,0.3305925431048468,0.106855681584416,0.057880111828998625,0.27503846175322255,0.46493340060520727,0.7938627935967482,0.9914980100147384,0.8456872758936912,0.05698193079501818
18.400000000000002,0.3339494615292666,0.10803170726814168,0.058545760111842315,0.27664655841707414,0.4697250503047197,0.801136567800247,0.9977956711424439,0.8514975425394294,0.05760092581526441
18.6,0.33729557603961396,0.10920772465155601,0.05921179057905116,0.2782388598173197,0.47450778131978816,0.8083830890264714,1.004042345375149,0.8572673138481932,0.0582197171683844
18.8,0.34063090970930066,0.1103837323962303,0.059878196089499694,0.279815620179608,0.4792815578494614,0.8156024887492679,1.010238769867952,0.8629971622834138,0.05883830367055317
19.0,0.343955486963256,0.11155972917068309,0.06054496954998833,0.28137708839404735,0.4840463450481896,0.8227948979670932,1.0163856662017394,0.8686876484933196,0.05945668415062257
19.200000000000003,0.3472693334969878,0.11273571365034206,0.06121210391493245,0.28292350814920775,0.48880210901289334,0.8299604471979216,1.0224837408223684,0.8743393216232777,0.06007485745001865
19.400000000000002,0.3505724761997999,0.11391168451750537,0.06187959218605376,0.28445511806230883,0.49354881677017,0.8370992664743827,1.0285336854642784,0.8799527196181904,0.060692822422640055
19.6,0.35386494308194755,0.11508764046130344,0.06254742741207524,0.28597215180571484,0.4982864362636326,0.8442114853391377,1.034536177559189,0.8855283695153254,0.06131057793475726
19.8,0.3571467632055156,0.11626358017766161,0.06321560268841797,0.28747483822984776,0.5030149363413825,0.8512972328404717,1.0404918806305248,0.8910667877279284,0.06192812286491221
20.0,0.360417966618828,0.11743950236926219,0.06388411115690086,0.28896340148262667,0.5077342867436149,0.8583566375281098,1.0464014446741494,0.8965684803199524,0.06254545610381965
20.200000000000003,0.3636785842941993,0.11861540574550754,0.0645529460054429,0.2904380611255442,0.5124444580903548,0.8653898274492409,1.0522655065260074,0.9020339432722355,0.06316257655426845
20.400000000000002,0.36692864806885445,0.11979128902248266,0.06522210046776818,0.29189903224647784,0.5171454218693253,0.8723969301447467,1.058084690217178,0.907463662740426,0.06377948313102436
20.6,0.3701681905888502,0.12096715092291924,0.06589156782311291,0.2933465255693391,0.5218371504239449,0.8793780726456345,1.0638596073168982,0.912858115304962,0.0643961747607333
20.8,0.3733972452558429,0.12214299017615807,0.06656134139593559,0.2947807475606571,0.5265196169414537,0.8863333814696567,1.0695908572640143,0.918217768213385,0.06501265038182547
21.0,0.37661584617655514,0.12331880551811374,0.06723141455562877,0.29620190053318723,0.5311927954411678,0.8932629826181249,1.0752790276873496,0.923543079615264,0.06562890894442049
